freq,psd_x,psd_y,psd_z,psd_xyz
0.0,7.524e+00,2.592e+02,4.498e+01,3.117e+02
1.6,1.311e+01,1.527e+02,4.212e+01,2.080e+02
3.2,1.271e+01,2.304e+01,2.222e+01,5.797e+01
4.7,1.216e+01,3.255e+02,2.264e+01,3.603e+02
6.3,1.226e+01,1.075e+03,2.075e+01,1.108e+03
7.9,1.225e+01,1.776e+03,2.238e+01,1.811e+03
9.5,1.443e+01,2.646e+03,2.283e+01,2.683e+03
11.1,2.146e+01,3.754e+03,2.334e+01,3.799e+03
12.7,4.433e+01,5.129e+03,2.255e+01,5.196e+03
14.2,2.980e+01,6.778e+03,2.470e+01,6.833e+03
15.8,1.577e+01,8.811e+03,2.665e+01,8.854e+03
17.4,1.740e+01,1.159e+04,3.076e+01,1.163e+04
19.0,2.930e+01,1.436e+04,3.551e+01,1.443e+04
20.6,3.046e+01,1.762e+04,3.230e+01,1.768e+04
22.2,2.904e+01,2.075e+04,4.160e+01,2.083e+04
23.7,2.606e+01,2.207e+04,4.657e+01,2.214e+04
25.3,2.446e+01,2.849e+04,5.142e+01,2.857e+04
26.9,3.068e+01,3.929e+04,7.829e+01,3.939e+04
28.5,8.241e+01,5.058e+04,1.271e+02,5.079e+04
30.1,1.111e+02,6.205e+04,3.078e+02,6.246e+04
31.7,1.503e+02,8.105e+04,6.820e+02,8.188e+04
33.2,1.984e+02,1.207e+05,1.940e+03,1.228e+05
34.8,1.607e+02,1.826e+05,4.531e+03,1.872e+05
36.4,1.783e+02,2.794e+05,4.504e+03,2.841e+05
38.0,4.859e+02,4.777e+05,3.516e+03,4.817e+05
39.6,7.751e+02,6.023e+05,3.268e+03,6.063e+05
41.2,1.141e+03,5.829e+05,2.746e+03,5.868e+05
42.7,1.770e+03,5.029e+05,2.638e+03,5.073e+05
44.3,3.061e+03,4.092e+05,2.365e+03,4.146e+05
45.9,5.455e+03,3.176e+05,9.777e+02,3.241e+05
47.5,9.718e+03,2.257e+05,1.065e+03,2.365e+05
49.1,1.454e+04,1.637e+05,2.592e+03,1.808e+05
50.6,1.595e+04,1.401e+05,5.021e+03,1.611e+05
52.2,1.333e+04,1.244e+05,6.355e+03,1.441e+05
53.8,8.810e+03,1.051e+05,5.252e+03,1.191e+05
55.4,5.412e+03,8.726e+04,3.155e+03,9.583e+04
57.0,4.208e+03,7.479e+04,4.356e+03,8.335e+04
58.6,5.741e+03,6.280e+04,1.528e+04,8.382e+04
60.1,7.095e+03,5.595e+04,3.654e+04,9.958e+04
61.7,5.703e+03,5.085e+04,4.315e+04,9.971e+04
63.3,5.771e+03,4.399e+04,2.693e+04,7.670e+04
64.9,6.984e+03,3.879e+04,1.122e+04,5.700e+04
66.5,6.030e+03,3.235e+04,4.129e+03,4.251e+04
68.1,2.853e+03,2.580e+04,6.325e+03,3.498e+04
69.6,1.963e+03,2.196e+04,1.106e+04,3.499e+04
71.2,4.762e+03,2.033e+04,1.225e+04,3.734e+04
72.8,9.305e+03,1.809e+04,1.055e+04,3.794e+04
74.4,1.371e+04,1.750e+04,1.115e+04,4.237e+04
76.0,1.713e+04,2.058e+04,1.914e+04,5.685e+04
77.6,1.907e+04,2.482e+04,3.323e+04,7.712e+04
79.1,1.654e+04,2.900e+04,5.375e+04,9.930e+04
80.7,1.151e+04,3.062e+04,7.568e+04,1.178e+05
82.3,7.679e+03,2.877e+04,1.001e+05,1.366e+05
83.9,4.402e+03,2.559e+04,1.367e+05,1.667e+05
85.5,2.506e+03,2.236e+04,2.108e+05,2.357e+05
87.1,6.285e+03,1.944e+04,3.655e+05,3.912e+05
88.6,1.296e+04,1.608e+04,5.397e+05,5.687e+05
90.2,1.291e+04,1.147e+04,5.275e+05,5.519e+05
91.8,8.184e+03,8.451e+03,3.767e+05,3.933e+05
93.4,4.414e+03,7.593e+03,2.396e+05,2.516e+05
95.0,2.498e+03,7.746e+03,1.489e+05,1.592e+05
96.5,1.698e+03,7.900e+03,9.563e+04,1.052e+05
98.1,1.308e+03,7.803e+03,6.683e+04,7.594e+04
99.7,9.621e+02,7.716e+03,4.994e+04,5.862e+04
101.3,6.461e+02,7.462e+03,3.608e+04,4.419e+04
102.9,4.284e+02,6.335e+03,2.325e+04,3.001e+04
104.5,3.079e+02,5.795e+03,1.719e+04,2.329e+04
106.0,2.540e+02,6.925e+03,1.791e+04,2.508e+04
107.6,2.128e+02,7.211e+03,1.396e+04,2.138e+04
109.2,2.048e+02,6.393e+03,9.220e+03,1.582e+04
110.8,2.453e+02,5.735e+03,6.506e+03,1.249e+04
112.4,2.936e+02,5.263e+03,5.234e+03,1.079e+04
114.0,3.216e+02,4.800e+03,4.597e+03,9.718e+03
115.5,3.443e+02,4.754e+03,4.600e+03,9.698e+03
117.1,3.586e+02,4.730e+03,4.752e+03,9.841e+03
118.7,3.367e+02,4.579e+03,4.724e+03,9.640e+03
120.3,3.027e+02,4.365e+03,4.427e+03,9.095e+03
121.9,2.980e+02,4.368e+03,3.946e+03,8.612e+03
123.5,2.820e+02,4.554e+03,3.558e+03,8.394e+03
125.0,2.244e+02,4.644e+03,3.281e+03,8.149e+03
126.6,1.529e+02,4.628e+03,3.335e+03,8.116e+03
128.2,1.260e+02,4.477e+03,3.889e+03,8.492e+03
129.8,1.741e+02,4.449e+03,3.874e+03,8.497e+03
131.4,1.996e+02,4.725e+03,3.125e+03,8.050e+03
133.0,1.258e+02,3.145e+03,1.877e+03,5.147e+03
134.5,3.374e+01,8.636e+02,3.411e+02,1.238e+03
136.1,2.028e+01,4.505e+02,1.740e+02,6.448e+02
137.7,1.953e+01,3.161e+02,1.764e+02,5.120e+02
139.3,2.392e+01,2.401e+02,1.624e+02,4.264e+02
140.9,3.202e+01,1.975e+02,1.381e+02,3.676e+02
142.4,3.878e+01,1.773e+02,1.061e+02,3.222e+02
144.0,4.387e+01,1.721e+02,1.047e+02,3.207e+02
145.6,5.383e+01,1.903e+02,1.137e+02,3.578e+02
147.2,7.436e+01,2.240e+02,1.373e+02,4.357e+02
148.8,6.575e+01,2.854e+02,2.175e+02,5.686e+02
150.4,5.727e+01,3.405e+02,3.821e+02,7.798e+02
151.9,6.261e+01,3.660e+02,6.089e+02,1.038e+03
153.5,5.984e+01,3.574e+02,8.828e+02,1.300e+03
155.1,6.104e+01,3.233e+02,9.177e+02,1.302e+03
156.7,7.160e+01,3.213e+02,6.479e+02,1.041e+03
158.3,8.120e+01,3.375e+02,4.218e+02,8.405e+02
159.9,8.560e+01,3.298e+02,2.784e+02,6.938e+02
161.4,8.371e+01,3.141e+02,1.908e+02,5.887e+02
163.0,8.544e+01,3.034e+02,1.437e+02,5.325e+02
164.6,8.026e+01,3.297e+02,1.310e+02,5.410e+02
166.2,5.607e+01,3.761e+02,1.455e+02,5.777e+02
167.8,3.583e+01,4.271e+02,1.723e+02,6.353e+02
169.4,3.364e+01,5.076e+02,2.001e+02,7.414e+02
170.9,3.386e+01,5.631e+02,2.117e+02,8.086e+02
172.5,2.908e+01,6.130e+02,2.310e+02,8.731e+02
174.1,2.715e+01,7.062e+02,2.392e+02,9.726e+02
175.7,2.758e+01,7.748e+02,2.439e+02,1.046e+03
177.3,3.576e+01,8.322e+02,2.369e+02,1.105e+03
178.9,5.335e+01,9.160e+02,2.345e+02,1.204e+03
180.4,6.540e+01,1.009e+03,2.643e+02,1.339e+03
182.0,7.054e+01,1.122e+03,2.999e+02,1.492e+03
183.6,7.628e+01,1.288e+03,3.525e+02,1.717e+03
185.2,9.578e+01,1.638e+03,4.618e+02,2.196e+03
186.8,1.557e+02,2.315e+03,6.603e+02,3.131e+03
188.3,2.326e+02,2.964e+03,9.154e+02,4.112e+03
189.9,3.814e+02,3.504e+03,1.174e+03,5.060e+03
191.5,6.145e+02,4.386e+03,1.512e+03,6.513e+03
193.1,7.133e+02,4.398e+03,1.506e+03,6.618e+03
194.7,6.455e+02,3.429e+03,1.160e+03,5.235e+03
196.3,5.035e+02,2.167e+03,7.277e+02,3.398e+03
197.8,4.384e+02,1.404e+03,4.728e+02,2.315e+03
199.4,3.992e+02,9.422e+02,3.182e+02,1.660e+03
